# altitude[m] counts662 counts662_hosei
0.1 45890 0.101528
0.5 162867 0.142779
1 227376 0.123119
2 278020 0.115982
3 292882 0.099069
4 298926 0.0931748
5 301087 0.0876365
10 289144 0.0677589
20 255726 0.0490065
30 230432 0.0376458
40 208943 0.0298705
50 189816 0.0241758
60 174789 0.0199811
70 161036 0.0165248
