# altitude[m] counts662 counts662_hosei
0.1 380083 0.257627
10 306351 0.0695004
20 263726 0.0495297
30 234041 0.0380417
40 213298 0.0303654
50 193981 0.0245203
60 177743 0.0202191
70 163723 0.0168395
80 150178 0.0139494
90 138338 0.0117758
100 127788 0.0100819
130 98728 0.00614212
150 83622 0.00449774